; ENVI Output of ROIs (5.4) [Tue Aug 13 17:28:58 2019]
; Number of ROIs: 6
; File Dimension: 1328 x 1184
;
; ROI name: Region #1
; ROI rgb value: {255, 0, 0}
; ROI npts: 278
;
; ROI name: Region #2
; ROI rgb value: {0, 255, 0}
; ROI npts: 70
;
; ROI name: Region #3
; ROI rgb value: {0, 0, 255}
; ROI npts: 138
;
; ROI name: Region #4
; ROI rgb value: {255, 255, 0}
; ROI npts: 199
;
; ROI name: Region #5
; ROI rgb value: {0, 255, 255}
; ROI npts: 83
;
; ROI name: Region #6
; ROI rgb value: {255, 0, 255}
; ROI npts: 77
;   ID     X    Y        B1        B2        B3
     1   919  792  -99.6305    4.8048  -13.7139
     2   924  792  -99.6304    4.8022  -13.7139
     3   923  792  -99.6304    4.8027  -13.7139
     4   922  792  -99.6314    4.8040  -13.7138
     5   921  792  -99.6326    4.8057  -13.7137
     6   920  792  -99.6309    4.8047  -13.7138
     7   918  792  -99.6299    4.8048  -13.7139
     8   917  792  -99.6288    4.8043  -13.7140
     9   916  792  -99.6292    4.8051  -13.7139
    10   915  792  -99.6289    4.8054  -13.7139
    11   914  792  -99.6278    4.8050  -13.7140
    12   913  792  -99.6278    4.8054  -13.7140
    13   912  792  -99.6272    4.8054  -13.7140
    14   911  792  -99.6273    4.8061  -13.7140
    15   910  792  -99.6271    4.8064  -13.7140
    16   909  792  -99.6268    4.8066  -13.7140
    17   908  792  -99.6268    4.8071  -13.7140
    18   907  792  -99.6255    4.8065  -13.7141
    19   906  792  -99.6283    4.8095  -13.7138
    20   905  792  -99.6290    4.8106  -13.7137
    21   904  793  -99.6273    4.8097  -13.7135
    22   903  793  -99.6263    4.8092  -13.7135
    23   902  793  -99.6267    4.8102  -13.7135
    24   901  793  -99.6270    4.8109  -13.7134
    25   900  793  -99.6262    4.8107  -13.7135
    26   899  793  -99.6266    4.8116  -13.7135
    27   898  793  -99.6259    4.8115  -13.7135
    28   897  793  -99.6262    4.8122  -13.7135
    29   896  793  -99.6242    4.8110  -13.7136
    30   895  793  -99.6252    4.8124  -13.7135
    31   894  793  -99.6255    4.8132  -13.7135
    32   893  793  -99.6256    4.8138  -13.7135
    33   929  793  -99.6325    4.8015  -13.7134
    34   928  793  -99.6313    4.8010  -13.7135
    35   927  793  -99.6315    4.8016  -13.7135
    36   926  793  -99.6309    4.8016  -13.7135
    37   925  793  -99.6307    4.8019  -13.7135
    38   887  794  -99.6262    4.8174  -13.7129
    39   889  794  -99.6275    4.8175  -13.7128
    40   890  794  -99.6270    4.8166  -13.7129
    41   891  794  -99.6272    4.8162  -13.7129
    42   886  794  -99.6249    4.8168  -13.7130
    43   892  794  -99.6276    4.8161  -13.7129
    44   888  794  -99.6270    4.8176  -13.7129
    45   930  794  -99.6309    4.7995  -13.7132
    46   931  794  -99.6304    4.7986  -13.7132
    47   932  794  -99.6298    4.7975  -13.7133
    48   933  794  -99.6294    4.7967  -13.7133
    49   934  794  -99.6296    4.7964  -13.7133
    50   935  794  -99.6305    4.7966  -13.7133
    51   937  795  -99.6301    4.7954  -13.7129
    52   938  795  -99.6301    4.7948  -13.7130
    53   939  795  -99.6284    4.7928  -13.7131
    54   940  795  -99.6270    4.7910  -13.7133
    55   936  795  -99.6305    4.7961  -13.7129
    56   941  796  -99.6305    4.7937  -13.7126
    57   942  796  -99.6319    4.7944  -13.7125
    58   943  796  -99.6296    4.7918  -13.7127
    59   944  796  -99.6291    4.7909  -13.7127
    60   945  796  -99.6280    4.7894  -13.7129
    61   947  797  -99.6304    4.7905  -13.7123
    62   948  797  -99.6313    4.7908  -13.7123
    63   949  797  -99.6302    4.7893  -13.7124
    64   950  797  -99.6308    4.7894  -13.7123
    65   951  797  -99.6302    4.7883  -13.7124
    66   946  797  -99.6306    4.7912  -13.7123
    67   952  798  -99.6290    4.7868  -13.7121
    68   953  798  -99.6304    4.7875  -13.7120
    69   954  798  -99.6301    4.7867  -13.7121
    70   955  798  -99.6311    4.7871  -13.7120
    71   957  799  -99.6303    4.7853  -13.7117
    72   958  799  -99.6296    4.7842  -13.7118
    73   959  799  -99.6300    4.7841  -13.7118
    74   956  799  -99.6298    4.7855  -13.7117
    75   961  800  -99.6288    4.7820  -13.7115
    76   962  800  -99.6283    4.7811  -13.7116
    77   963  800  -99.6283    4.7806  -13.7116
    78   960  800  -99.6293    4.7829  -13.7115
    79   964  801  -99.6264    4.7785  -13.7114
    80   965  801  -99.6273    4.7787  -13.7113
    81   966  801  -99.6286    4.7793  -13.7112
    82   967  801  -99.6288    4.7790  -13.7112
    83   969  802  -99.6300    4.7791  -13.7108
    84   970  802  -99.6319    4.7802  -13.7106
    85   971  802  -99.6308    4.7788  -13.7107
    86   968  802  -99.6314    4.7808  -13.7106
    87   972  803  -99.6290    4.7767  -13.7105
    88   973  803  -99.6290    4.7762  -13.7105
    89   974  803  -99.6301    4.7766  -13.7105
    90   975  803  -99.6299    4.7760  -13.7105
    91   977  804  -99.6298    4.7748  -13.7101
    92   978  804  -99.6303    4.7748  -13.7101
    93   979  804  -99.6317    4.7755  -13.7100
    94   980  804  -99.6308    4.7742  -13.7101
    95   976  804  -99.6296    4.7752  -13.7101
    96   981  805  -99.6321    4.7748  -13.7096
    97   982  805  -99.6317    4.7740  -13.7097
    98   983  805  -99.6322    4.7739  -13.7096
    99   984  805  -99.6320    4.7733  -13.7097
   100   985  805  -99.6313    4.7721  -13.7097
   101   986  805  -99.6313    4.7717  -13.7098
   102   987  805  -99.6320    4.7717  -13.7097
   103   988  806  -99.6328    4.7719  -13.7093
   104   989  806  -99.6313    4.7701  -13.7094
   105   990  806  -99.6317    4.7699  -13.7094
   106   991  806  -99.6325    4.7702  -13.7094
   107   992  806  -99.6325    4.7697  -13.7094
   108   993  806  -99.6332    4.7698  -13.7093
   109   994  806  -99.6303    4.7667  -13.7096
   110   995  806  -99.6309    4.7668  -13.7095
   111   997  807  -99.6316    4.7664  -13.7091
   112   998  807  -99.6347    4.7686  -13.7089
   113   999  807  -99.6301    4.7641  -13.7093
   114  1000  807  -99.6322    4.7654  -13.7091
   115  1001  807  -99.6303    4.7632  -13.7093
   116  1002  807  -99.6344    4.7663  -13.7090
   117   996  807  -99.6329    4.7680  -13.7090
   118  1003  808  -99.6331    4.7647  -13.7087
   119  1004  808  -99.6344    4.7653  -13.7087
   120  1005  808  -99.6328    4.7634  -13.7088
   121  1006  808  -99.6346    4.7645  -13.7087
   122  1007  808  -99.6348    4.7641  -13.7087
   123  1008  808  -99.6342    4.7631  -13.7087
   124  1009  808  -99.6333    4.7618  -13.7088
   125  1010  809  -99.6334    4.7614  -13.7085
   126  1011  809  -99.6325    4.7601  -13.7086
   127  1012  809  -99.6323    4.7595  -13.7086
   128  1013  809  -99.6322    4.7589  -13.7086
   129  1014  809  -99.6308    4.7571  -13.7087
   130  1015  809  -99.6324    4.7580  -13.7086
   131  1016  809  -99.6329    4.7579  -13.7086
   132  1017  809  -99.6324    4.7570  -13.7086
   133  1019  810  -99.6338    4.7572  -13.7082
   134  1020  810  -99.6333    4.7563  -13.7082
   135  1021  810  -99.6330    4.7555  -13.7083
   136  1022  810  -99.6342    4.7561  -13.7082
   137  1023  810  -99.6327    4.7542  -13.7083
   138  1024  810  -99.6321    4.7533  -13.7084
   139  1018  810  -99.6330    4.7570  -13.7082
   140  1025  811  -99.6315    4.7522  -13.7081
   141  1026  811  -99.6305    4.7509  -13.7082
   142  1027  811  -99.6298    4.7497  -13.7082
   143  1028  811  -99.6296    4.7491  -13.7083
   144  1029  811  -99.6314    4.7501  -13.7081
   145  1030  811  -99.6310    4.7493  -13.7082
   146  1031  811  -99.6313    4.7490  -13.7082
   147  1032  811  -99.6314    4.7487  -13.7082
   148  1033  812  -99.6310    4.7478  -13.7078
   149  1034  812  -99.6297    4.7461  -13.7080
   150  1035  812  -99.6295    4.7455  -13.7080
   151  1036  812  -99.6297    4.7452  -13.7080
   152  1037  812  -99.6289    4.7440  -13.7081
   153  1038  812  -99.6294    4.7439  -13.7081
   154  1039  812  -99.6307    4.7445  -13.7080
   155  1040  812  -99.6307    4.7441  -13.7080
   156  1041  812  -99.6309    4.7437  -13.7080
   157  1042  813  -99.6294    4.7419  -13.7077
   158  1043  813  -99.6308    4.7426  -13.7076
   159  1044  813  -99.6300    4.7414  -13.7077
   160  1045  813  -99.6307    4.7416  -13.7077
   161  1046  813  -99.6321    4.7423  -13.7076
   162  1047  813  -99.6324    4.7420  -13.7076
   163  1048  813  -99.6321    4.7412  -13.7076
   164  1049  813  -99.6321    4.7408  -13.7076
   165  1050  813  -99.6309    4.7392  -13.7078
   166  1052  814  -99.6319    4.7391  -13.7073
   167  1053  814  -99.6317    4.7384  -13.7074
   168  1054  814  -99.6324    4.7385  -13.7073
   169  1055  814  -99.6323    4.7380  -13.7073
   170  1056  814  -99.6323    4.7375  -13.7073
   171  1057  814  -99.6310    4.7358  -13.7075
   172  1058  814  -99.6303    4.7347  -13.7076
   173  1051  814  -99.6318    4.7395  -13.7073
   174  1059  815  -99.6304    4.7343  -13.7072
   175  1060  815  -99.6315    4.7348  -13.7071
   176  1061  815  -99.6323    4.7349  -13.7070
   177  1062  815  -99.6322    4.7344  -13.7071
   178  1063  815  -99.6311    4.7329  -13.7072
   179  1064  815  -99.6307    4.7321  -13.7072
   180  1065  815  -99.6311    4.7319  -13.7072
   181  1066  815  -99.6322    4.7324  -13.7071
   182  1067  815  -99.6332    4.7327  -13.7071
   183  1068  816  -99.6322    4.7314  -13.7068
   184  1069  816  -99.6328    4.7314  -13.7067
   185  1070  816  -99.6318    4.7301  -13.7068
   186  1071  816  -99.6340    4.7314  -13.7067
   187  1072  816  -99.6343    4.7312  -13.7066
   188  1073  816  -99.6346    4.7309  -13.7066
   189  1074  816  -99.6356    4.7313  -13.7066
   190  1075  816  -99.6337    4.7292  -13.7067
   191  1076  816  -99.6337    4.7287  -13.7067
   192  1077  817  -99.6343    4.7287  -13.7063
   193  1078  817  -99.6332    4.7273  -13.7064
   194  1079  817  -99.6354    4.7287  -13.7063
   195  1080  817  -99.6327    4.7259  -13.7065
   196  1081  817  -99.6322    4.7249  -13.7066
   197  1082  817  -99.6327    4.7248  -13.7066
   198  1083  817  -99.6337    4.7252  -13.7065
   199  1084  817  -99.6333    4.7244  -13.7065
   200  1085  817  -99.6325    4.7232  -13.7066
   201  1086  817  -99.6327    4.7228  -13.7066
   202  1087  817  -99.6325    4.7221  -13.7067
   203  1088  818  -99.6312    4.7206  -13.7064
   204  1089  818  -99.6320    4.7207  -13.7064
   205  1090  818  -99.6320    4.7203  -13.7064
   206  1091  818  -99.6313    4.7192  -13.7065
   207  1092  818  -99.6319    4.7192  -13.7064
   208  1093  818  -99.6330    4.7196  -13.7063
   209  1094  818  -99.6322    4.7185  -13.7064
   210  1095  818  -99.6330    4.7186  -13.7064
   211  1096  818  -99.6329    4.7180  -13.7064
   212  1097  818  -99.6336    4.7181  -13.7063
   213  1098  818  -99.6336    4.7176  -13.7064
   214  1099  818  -99.6341    4.7176  -13.7063
   215  1100  818  -99.6336    4.7167  -13.7064
   216  1101  819  -99.6327    4.7154  -13.7061
   217  1102  819  -99.6334    4.7155  -13.7061
   218  1103  819  -99.6327    4.7144  -13.7061
   219  1104  819  -99.6324    4.7137  -13.7062
   220  1105  819  -99.6317    4.7125  -13.7063
   221  1106  819  -99.6322    4.7125  -13.7062
   222  1107  819  -99.6336    4.7132  -13.7061
   223  1108  819  -99.6323    4.7116  -13.7063
   224  1109  819  -99.6326    4.7113  -13.7062
   225  1110  819  -99.6328    4.7110  -13.7062
   226  1111  819  -99.6330    4.7107  -13.7062
   227  1112  819  -99.6320    4.7094  -13.7063
   228  1113  819  -99.6326    4.7094  -13.7063
   229  1114  820  -99.6332    4.7094  -13.7059
   230  1115  820  -99.6341    4.7096  -13.7058
   231  1116  820  -99.6339    4.7090  -13.7058
   232  1117  820  -99.6330    4.7077  -13.7059
   233  1118  820  -99.6336    4.7077  -13.7059
   234  1119  820  -99.6325    4.7063  -13.7060
   235  1120  820  -99.6319    4.7053  -13.7061
   236  1121  820  -99.6316    4.7045  -13.7061
   237  1122  820  -99.6309    4.7035  -13.7062
   238  1123  820  -99.6316    4.7035  -13.7061
   239  1124  820  -99.6306    4.7022  -13.7063
   240  1125  820  -99.6318    4.7027  -13.7062
   241  1126  821  -99.6318    4.7023  -13.7058
   242  1127  821  -99.6307    4.7009  -13.7059
   243  1128  821  -99.6310    4.7006  -13.7059
   244  1129  821  -99.6312    4.7003  -13.7059
   245  1130  821  -99.6308    4.6994  -13.7059
   246  1131  821  -99.6308    4.6990  -13.7059
   247  1132  821  -99.6312    4.6988  -13.7059
   248  1133  821  -99.6313    4.6984  -13.7060
   249  1134  821  -99.6316    4.6981  -13.7060
   250  1135  821  -99.6324    4.6983  -13.7059
   251  1136  821  -99.6330    4.6983  -13.7059
   252  1137  822  -99.6325    4.6974  -13.7056
   253  1138  822  -99.6326    4.6971  -13.7056
   254  1139  822  -99.6331    4.6970  -13.7055
   255  1140  822  -99.6331    4.6965  -13.7056
   256  1141  822  -99.6329    4.6958  -13.7056
   257  1142  822  -99.6302    4.6930  -13.7059
   258  1143  822  -99.6308    4.6931  -13.7058
   259  1144  822  -99.6317    4.6933  -13.7058
   260  1145  822  -99.6328    4.6937  -13.7057
   261  1146  822  -99.6339    4.6942  -13.7056
   262  1147  823  -99.6303    4.6906  -13.7056
   263  1148  823  -99.6307    4.6905  -13.7055
   264  1149  823  -99.6312    4.6904  -13.7055
   265  1150  823  -99.6299    4.6888  -13.7056
   266  1151  823  -99.6314    4.6896  -13.7055
   267  1152  823  -99.6305    4.6883  -13.7056
   268  1153  823  -99.6293    4.6868  -13.7057
   269  1154  823  -99.6310    4.6878  -13.7056
   270  1155  823  -99.6309    4.6873  -13.7056
   271  1156  823  -99.6310    4.6869  -13.7056
   272  1157  823  -99.6330    4.6880  -13.7055
   273  1159  824  -99.6352    4.6889  -13.7049
   274  1160  824  -99.6355    4.6887  -13.7049
   275  1161  824  -99.6359    4.6885  -13.7049
   276  1162  824  -99.6361    4.6882  -13.7049
   277  1163  824  -99.6366    4.6882  -13.7048
   278  1158  824  -99.6349    4.6891  -13.7049

    1   965  865  -99.5919    4.7484  -13.6901
    2   966  865  -99.5924    4.7483  -13.6901
    3   967  865  -99.5937    4.7489  -13.6900
    4   968  865  -99.5948    4.7495  -13.6899
    5   969  865  -99.5940    4.7482  -13.6900
    6   970  865  -99.5946    4.7482  -13.6900
    7   971  865  -99.5956    4.7486  -13.6899
    8   972  865  -99.5951    4.7477  -13.6899
    9   973  865  -99.5939    4.7461  -13.6901
   10   974  866  -99.5948    4.7464  -13.6896
   11   975  866  -99.5933    4.7446  -13.6898
   12   976  866  -99.5931    4.7440  -13.6898
   13   977  866  -99.5927    4.7431  -13.6899
   14   978  866  -99.5911    4.7412  -13.6901
   15   979  866  -99.5916    4.7411  -13.6900
   16   980  866  -99.5893    4.7386  -13.6903
   17   981  866  -99.5901    4.7388  -13.6902
   18   982  866  -99.5899    4.7381  -13.6903
   19   983  866  -99.5906    4.7383  -13.6902
   20   984  866  -99.5911    4.7382  -13.6902
   21   985  866  -99.5917    4.7382  -13.6902
   22   986  866  -99.5924    4.7383  -13.6901
   23   988  867  -99.5922    4.7371  -13.6898
   24   989  867  -99.5907    4.7354  -13.6900
   25   990  867  -99.5906    4.7347  -13.6900
   26   991  867  -99.5920    4.7355  -13.6899
   27   992  867  -99.5876    4.7312  -13.6903
   28   987  867  -99.5918    4.7373  -13.6898
   29   993  868  -99.5884    4.7313  -13.6898
   30   994  868  -99.5926    4.7345  -13.6895
   31   995  868  -99.5905    4.7322  -13.6897
   32   996  868  -99.5915    4.7325  -13.6896
   33   997  868  -99.5938    4.7341  -13.6894
   34   998  868  -99.5928    4.7327  -13.6895
   35   999  868  -99.5933    4.7327  -13.6894
   36  1000  869  -99.5946    4.7332  -13.6889
   37  1001  869  -99.5952    4.7333  -13.6889
   38  1002  869  -99.5952    4.7328  -13.6889
   39  1003  869  -99.5953    4.7324  -13.6889
   40  1004  869  -99.5954    4.7320  -13.6889
   41  1005  869  -99.5946    4.7308  -13.6890
   42  1021  869  -99.5972    4.7250  -13.6891
   43  1020  869  -99.5972    4.7256  -13.6890
   44  1019  869  -99.5974    4.7263  -13.6890
   45  1018  869  -99.5978    4.7271  -13.6889
   46  1017  869  -99.5973    4.7271  -13.6890
   47  1016  869  -99.5993    4.7293  -13.6888
   48  1015  869  -99.5991    4.7297  -13.6888
   49  1014  869  -99.5991    4.7302  -13.6888
   50  1013  870  -99.6000    4.7315  -13.6883
   51  1012  870  -99.5996    4.7317  -13.6883
   52  1011  870  -99.5995    4.7320  -13.6883
   53  1010  870  -99.5994    4.7325  -13.6883
   54  1009  870  -99.5988    4.7325  -13.6883
   55  1008  870  -99.5969    4.7313  -13.6884
   56  1007  870  -99.5955    4.7306  -13.6885
   57  1006  870  -99.5957    4.7313  -13.6885
   58  1022  870  -99.5980    4.7253  -13.6886
   59  1023  870  -99.5973    4.7242  -13.6887
   60  1024  870  -99.5984    4.7246  -13.6886
   61  1025  870  -99.5977    4.7235  -13.6887
   62  1026  870  -99.5981    4.7233  -13.6887
   63  1027  870  -99.5985    4.7232  -13.6886
   64  1028  870  -99.5991    4.7232  -13.6886
   65  1029  870  -99.5990    4.7227  -13.6886
   66  1031  871  -99.5995    4.7221  -13.6882
   67  1032  871  -99.5999    4.7220  -13.6882
   68  1033  871  -99.6002    4.7217  -13.6882
   69  1034  871  -99.6005    4.7215  -13.6881
   70  1030  871  -99.5991    4.7223  -13.6882

     1  162  564  -99.6451    5.2234  -13.7933
     2  163  564  -99.6440    5.2218  -13.7934
     3  164  564  -99.6442    5.2214  -13.7934
     4  165  564  -99.6449    5.2216  -13.7933
     5  161  564  -99.6462    5.2251  -13.7932
     6  166  565  -99.6447    5.2208  -13.7930
     7  167  565  -99.6450    5.2206  -13.7929
     8  168  565  -99.6448    5.2198  -13.7930
     9  169  565  -99.6446    5.2190  -13.7930
    10  170  565  -99.6452    5.2191  -13.7930
    11  171  565  -99.6460    5.2193  -13.7929
    12  172  565  -99.6475    5.2202  -13.7928
    13  173  565  -99.6482    5.2203  -13.7928
    14  174  565  -99.6482    5.2198  -13.7927
    15  175  566  -99.6479    5.2189  -13.7924
    16  176  566  -99.6481    5.2185  -13.7924
    17  177  566  -99.6479    5.2177  -13.7924
    18  178  566  -99.6486    5.2179  -13.7923
    19  179  566  -99.6485    5.2172  -13.7923
    20  180  566  -99.6483    5.2165  -13.7924
    21  181  566  -99.6479    5.2155  -13.7924
    22  182  566  -99.6486    5.2156  -13.7924
    23  183  566  -99.6492    5.2156  -13.7923
    24  184  566  -99.6482    5.2141  -13.7924
    25  185  566  -99.6476    5.2130  -13.7924
    26  186  567  -99.6454    5.2102  -13.7922
    27  187  567  -99.6458    5.2101  -13.7922
    28  188  567  -99.6464    5.2101  -13.7921
    29  189  567  -99.6476    5.2107  -13.7921
    30  190  567  -99.6454    5.2079  -13.7922
    31  191  567  -99.6457    5.2077  -13.7922
    32  192  567  -99.6452    5.2066  -13.7923
    33  193  567  -99.6461    5.2070  -13.7922
    34  194  567  -99.6463    5.2066  -13.7922
    35  195  567  -99.6470    5.2067  -13.7922
    36  196  567  -99.6465    5.2057  -13.7922
    37  197  567  -99.6466    5.2052  -13.7922
    38  198  567  -99.6469    5.2049  -13.7922
    39  213  567  -99.6542    5.2036  -13.7919
    40  214  567  -99.6534    5.2023  -13.7920
    41  215  567  -99.6526    5.2009  -13.7920
    42  216  567  -99.6511    5.1989  -13.7921
    43  217  567  -99.6498    5.1971  -13.7922
    44  218  567  -99.6501    5.1968  -13.7922
    45  219  567  -99.6487    5.1949  -13.7923
    46  220  567  -99.6511    5.1966  -13.7922
    47  221  567  -99.6504    5.1954  -13.7922
    48  222  567  -99.6500    5.1945  -13.7923
    49  223  567  -99.6517    5.1955  -13.7922
    50  224  567  -99.6516    5.1949  -13.7922
