; ENVI Output of ROIs (5.4) [Tue Aug 06 20:00:43 2019]
; Number of ROIs: 10
; File Dimension: 1328 x 1184
;
; ROI name: Region #1
; ROI rgb value: {255, 0, 0}
; ROI npts: 103
;
; ROI name: Region #2
; ROI rgb value: {0, 255, 0}
; ROI npts: 121
;
; ROI name: Region #3
; ROI rgb value: {0, 0, 255}
; ROI npts: 86
;
; ROI name: Region #4
; ROI rgb value: {255, 255, 0}
; ROI npts: 50
;
; ROI name: Region #5
; ROI rgb value: {0, 255, 255}
; ROI npts: 66
;
; ROI name: Region #6
; ROI rgb value: {255, 0, 255}
; ROI npts: 113
;
; ROI name: Region #7
; ROI rgb value: {176, 48, 96}
; ROI npts: 110
;
; ROI name: Region #8
; ROI rgb value: {46, 139, 87}
; ROI npts: 92
;
; ROI name: Region #9
; ROI rgb value: {160, 32, 240}
; ROI npts: 84
;
; ROI name: Region #10
; ROI rgb value: {255, 127, 80}
; ROI npts: 101
;   ID    X    Y       B1       B2       B3
     1  954  624  -5.5484  -3.0608  -1.2058
     2  953  624  -5.5476  -3.0610  -1.2060
     3  952  624  -5.5482  -3.0603  -1.2057
     4  951  624  -5.5480  -3.0601  -1.2058
     5  950  624  -5.5477  -3.0599  -1.2058
     6  949  624  -5.5471  -3.0600  -1.2059
     7  948  624  -5.5465  -3.0601  -1.2060
     8  947  624  -5.5461  -3.0600  -1.2061
     9  946  624  -5.5470  -3.0591  -1.2058
    10  944  625  -5.5457  -3.0593  -1.2058
    11  943  625  -5.5455  -3.0591  -1.2058
    12  942  625  -5.5450  -3.0591  -1.2059
    13  941  625  -5.5449  -3.0589  -1.2059
    14  940  625  -5.5442  -3.0589  -1.2061
    15  939  625  -5.5440  -3.0588  -1.2061
    16  938  625  -5.5441  -3.0584  -1.2060
    17  937  625  -5.5435  -3.0584  -1.2061
    18  935  625  -5.5431  -3.0580  -1.2061
    19  933  626  -5.5421  -3.0580  -1.2060
    20  932  626  -5.5429  -3.0572  -1.2057
    21  931  626  -5.5427  -3.0570  -1.2057
    22  930  626  -5.5423  -3.0569  -1.2058
    23  929  626  -5.5418  -3.0569  -1.2059
    24  928  626  -5.5417  -3.0567  -1.2058
    25  927  626  -5.5409  -3.0568  -1.2060
    26  926  626  -5.5408  -3.0566  -1.2060
    27  925  626  -5.5404  -3.0565  -1.2061
    28  924  626  -5.5411  -3.0557  -1.2058
    29  923  627  -5.5399  -3.0562  -1.2058
    30  922  627  -5.5399  -3.0559  -1.2058
    31  921  627  -5.5399  -3.0555  -1.2057
    32  920  627  -5.5403  -3.0549  -1.2055
    33  919  627  -5.5402  -3.0547  -1.2055
    34  918  627  -5.5403  -3.0543  -1.2054
    35  917  627  -5.5404  -3.0539  -1.2053
    36  916  627  -5.5399  -3.0539  -1.2054
    37  915  627  -5.5396  -3.0538  -1.2054
    38  914  627  -5.5391  -3.0538  -1.2055
    39  913  627  -5.5380  -3.0542  -1.2058
    40  912  627  -5.5380  -3.0538  -1.2058
    41  910  627  -5.5387  -3.0527  -1.2054
    42  909  627  -5.5388  -3.0523  -1.2053
    43  908  628  -5.5389  -3.0519  -1.2049
    44  907  628  -5.5395  -3.0512  -1.2046
    45  906  628  -5.5392  -3.0510  -1.2046
    46  905  628  -5.5392  -3.0507  -1.2046
    47  904  628  -5.5390  -3.0505  -1.2046
    48  903  628  -5.5380  -3.0508  -1.2049
    49  901  628  -5.5381  -3.0501  -1.2047
    50  900  628  -5.5374  -3.0502  -1.2049
    51  899  628  -5.5371  -3.0501  -1.2050
    52  898  628  -5.5363  -3.0503  -1.2051
    53  897  628  -5.5360  -3.0501  -1.2052
    54  896  628  -5.5355  -3.0501  -1.2053
    55  895  628  -5.5350  -3.0502  -1.2054
    56  894  628  -5.5345  -3.0502  -1.2055
    57  893  628  -5.5339  -3.0502  -1.2057
    58  892  628  -5.5327  -3.0507  -1.2060
    59  891  628  -5.5314  -3.0512  -1.2064
    60  890  629  -5.5305  -3.0515  -1.2063
    61  889  629  -5.5316  -3.0505  -1.2059
    62  888  629  -5.5308  -3.0507  -1.2061
    63  887  629  -5.5307  -3.0504  -1.2061
    64  886  629  -5.5301  -3.0505  -1.2062
    65  885  629  -5.5302  -3.0501  -1.2061
    66  884  629  -5.5289  -3.0506  -1.2065
    67  883  629  -5.5280  -3.0509  -1.2068
    68  882  629  -5.5267  -3.0515  -1.2071
    69  881  629  -5.5285  -3.0499  -1.2065
    70  880  629  -5.5289  -3.0493  -1.2063
    71  862  629  -5.5269  -3.0447  -1.2057
    72  864  629  -5.5269  -3.0453  -1.2058
    73  865  629  -5.5269  -3.0456  -1.2059
    74  866  629  -5.5270  -3.0459  -1.2059
    75  867  629  -5.5271  -3.0462  -1.2060
    76  868  629  -5.5265  -3.0469  -1.2063
    77  869  629  -5.5260  -3.0476  -1.2065
    78  873  629  -5.5253  -3.0494  -1.2070
    79  872  629  -5.5255  -3.0489  -1.2068
    80  871  629  -5.5256  -3.0485  -1.2067
    81  870  629  -5.5256  -3.0482  -1.2067
    82  873  630  -5.5239  -3.0503  -1.2072
    83  874  630  -5.5233  -3.0511  -1.2075
    84  875  630  -5.5228  -3.0518  -1.2077
    85  876  630  -5.5251  -3.0505  -1.2069
    86  877  630  -5.5229  -3.0524  -1.2078
    87  878  630  -5.5228  -3.0528  -1.2079
    88  879  630  -5.5271  -3.0502  -1.2065
    89  861  630  -5.5261  -3.0449  -1.2056
    90  859  630  -5.5260  -3.0443  -1.2055
    91  858  630  -5.5261  -3.0438  -1.2054
    92  857  630  -5.5261  -3.0435  -1.2054
    93  856  630  -5.5269  -3.0426  -1.2050
    94  854  630  -5.5269  -3.0420  -1.2049
    95  853  630  -5.5271  -3.0415  -1.2048
    96  852  630  -5.5257  -3.0421  -1.2052
    97  851  630  -5.5258  -3.0417  -1.2051
    98  850  630  -5.5249  -3.0419  -1.2053
    99  848  630  -5.5320  -3.0365  -1.2028
   100  845  630  -5.5306  -3.0364  -1.2031
   101  844  630  -5.5286  -3.0374  -1.2037
   102  843  630  -5.5277  -3.0377  -1.2040
   103  841  630  -5.5258  -3.0383  -1.2045

     1  749  635  -5.5042  -3.0223  -1.2044
     2  750  635  -5.5041  -3.0227  -1.2045
     3  752  635  -5.5051  -3.0227  -1.2043
     4  753  635  -5.5047  -3.0233  -1.2045
     5  754  635  -5.5049  -3.0235  -1.2045
     6  751  635  -5.5047  -3.0226  -1.2044
     7  764  636  -5.5041  -3.0275  -1.2052
     8  754  636  -5.5046  -3.0237  -1.2043
     9  763  636  -5.5043  -3.0270  -1.2050
    10  762  636  -5.5038  -3.0269  -1.2051
    11  911  636  -5.5351  -3.0556  -1.2041
    12  910  636  -5.5351  -3.0552  -1.2041
    13  755  636  -5.5050  -3.0238  -1.2043
    14  909  636  -5.5344  -3.0554  -1.2042
    15  769  637  -5.5081  -3.0263  -1.2038
    16  768  637  -5.5074  -3.0265  -1.2040
    17  767  637  -5.5072  -3.0263  -1.2040
    18  766  637  -5.5043  -3.0280  -1.2049
    19  765  637  -5.5047  -3.0274  -1.2047
    20  764  637  -5.5046  -3.0271  -1.2047
    21  756  637  -5.5048  -3.0242  -1.2041
    22  757  637  -5.5048  -3.0246  -1.2042
    23  770  637  -5.5071  -3.0274  -1.2042
    24  771  637  -5.5074  -3.0275  -1.2042
    25  772  637  -5.5077  -3.0276  -1.2041
    26  773  637  -5.5079  -3.0278  -1.2041
    27  774  637  -5.5081  -3.0280  -1.2041
    28  775  637  -5.5080  -3.0284  -1.2042
    29  776  637  -5.5079  -3.0289  -1.2043
    30  777  637  -5.5078  -3.0292  -1.2044
    31  778  637  -5.5079  -3.0295  -1.2044
    32  779  637  -5.5086  -3.0294  -1.2042
    33  780  637  -5.5090  -3.0294  -1.2042
    34  781  637  -5.5094  -3.0295  -1.2041
    35  782  637  -5.5104  -3.0292  -1.2038
    36  783  637  -5.5108  -3.0292  -1.2038
    37  760  637  -5.5043  -3.0260  -1.2046
    38  759  637  -5.5049  -3.0252  -1.2043
    39  755  637  -5.5049  -3.0238  -1.2040
    40  908  637  -5.5337  -3.0556  -1.2041
    41  907  637  -5.5350  -3.0543  -1.2036
    42  906  637  -5.5347  -3.0542  -1.2036
    43  905  637  -5.5352  -3.0535  -1.2034
    44  904  637  -5.5343  -3.0538  -1.2037
    45  903  637  -5.5339  -3.0537  -1.2037
    46  902  637  -5.5336  -3.0536  -1.2038
    47  901  637  -5.5340  -3.0530  -1.2035
    48  899  637  -5.5339  -3.0524  -1.2035
    49  898  637  -5.5332  -3.0525  -1.2036
    50  897  637  -5.5323  -3.0528  -1.2039
    51  896  637  -5.5302  -3.0539  -1.2046
    52  895  637  -5.5292  -3.0542  -1.2049
    53  894  637  -5.5277  -3.0549  -1.2053
    54  893  637  -5.5294  -3.0534  -1.2046
    55  892  637  -5.5286  -3.0536  -1.2048
    56  758  637  -5.5050  -3.0248  -1.2042
    57  891  637  -5.5287  -3.0532  -1.2047
    58  865  638  -5.5240  -3.0477  -1.2043
    59  867  638  -5.5240  -3.0484  -1.2045
    60  869  638  -5.5211  -3.0511  -1.2056
    61  871  638  -5.5224  -3.0508  -1.2053
    62  873  638  -5.5220  -3.0517  -1.2055
    63  874  638  -5.5220  -3.0521  -1.2056
    64  875  638  -5.5218  -3.0526  -1.2058
    65  862  638  -5.5247  -3.0462  -1.2039
    66  860  638  -5.5241  -3.0460  -1.2039
    67  858  638  -5.5248  -3.0448  -1.2036
    68  856  638  -5.5255  -3.0436  -1.2032
    69  853  638  -5.5255  -3.0427  -1.2031
    70  855  638  -5.5256  -3.0433  -1.2032
    71  854  638  -5.5252  -3.0432  -1.2032
    72  852  638  -5.5253  -3.0425  -1.2030
    73  850  638  -5.5242  -3.0426  -1.2033
    74  849  638  -5.5240  -3.0424  -1.2033
    75  846  638  -5.5222  -3.0425  -1.2037
    76  844  638  -5.5220  -3.0420  -1.2037
    77  843  638  -5.5228  -3.0412  -1.2033
    78  840  638  -5.5211  -3.0413  -1.2037
    79  838  638  -5.5204  -3.0411  -1.2039
    80  837  638  -5.5202  -3.0409  -1.2039
    81  835  638  -5.5184  -3.0415  -1.2044
    82  834  638  -5.5181  -3.0413  -1.2044
    83  832  638  -5.5170  -3.0414  -1.2046
    84  830  638  -5.5164  -3.0412  -1.2047
    85  829  638  -5.5168  -3.0406  -1.2044
    86  828  638  -5.5158  -3.0409  -1.2047
    87  825  638  -5.5145  -3.0408  -1.2050
    88  824  638  -5.5146  -3.0404  -1.2049
    89  823  638  -5.5146  -3.0401  -1.2048
    90  821  638  -5.5143  -3.0396  -1.2049
    91  819  638  -5.5143  -3.0389  -1.2047
    92  817  638  -5.5125  -3.0395  -1.2052
    93  816  638  -5.5134  -3.0385  -1.2048
    94  814  638  -5.5130  -3.0382  -1.2049
    95  813  638  -5.5129  -3.0379  -1.2048
    96  812  638  -5.5136  -3.0371  -1.2045
    97  811  638  -5.5141  -3.0364  -1.2042
    98  810  638  -5.5143  -3.0359  -1.2041
    99  796  638  -5.5143  -3.0312  -1.2031
   100  795  638  -5.5141  -3.0310  -1.2031
   101  794  638  -5.5134  -3.0311  -1.2033
   102  793  638  -5.5126  -3.0313  -1.2035
   103  792  638  -5.5117  -3.0316  -1.2037
   104  791  638  -5.5117  -3.0313  -1.2037
   105  790  638  -5.5120  -3.0308  -1.2035
   106  789  638  -5.5117  -3.0306  -1.2035
   107  788  638  -5.5110  -3.0307  -1.2037
   108  787  638  -5.5102  -3.0309  -1.2039
   109  786  638  -5.5103  -3.0306  -1.2038
   110  861  638  -5.5240  -3.0464  -1.2040
   111  785  638  -5.5096  -3.0307  -1.2040
   112  808  639  -5.5131  -3.0360  -1.2041
   113  807  639  -5.5137  -3.0353  -1.2038
   114  806  639  -5.5134  -3.0352  -1.2038
   115  804  639  -5.5136  -3.0344  -1.2036
   116  803  639  -5.5141  -3.0337  -1.2034
   117  802  639  -5.5147  -3.0330  -1.2031
   118  800  639  -5.5142  -3.0326  -1.2031
   119  799  639  -5.5146  -3.0320  -1.2029
   120  797  639  -5.5138  -3.0319  -1.2030
   121  809  639  -5.5131  -3.0364  -1.2042

    1  1057  604  -5.5742  -3.0777  -1.2094
    2  1056  604  -5.5750  -3.0768  -1.2091
    3  1054  604  -5.5731  -3.0774  -1.2096
    4  1058  604  -5.5742  -3.0780  -1.2095
    5  1053  605  -5.5748  -3.0760  -1.2087
    6  1052  606  -5.5765  -3.0745  -1.2077
    7  1051  606  -5.5758  -3.0747  -1.2079
    8  1050  606  -5.5737  -3.0757  -1.2086
    9  1048  606  -5.5724  -3.0759  -1.2089
   10  1047  606  -5.5727  -3.0754  -1.2087
   11  1045  606  -5.5726  -3.0748  -1.2086
   12  1044  606  -5.5726  -3.0744  -1.2085
   13  1043  606  -5.5729  -3.0740  -1.2084
   14  1021  606  -5.5678  -3.0699  -1.2087
   15  1020  606  -5.5675  -3.0698  -1.2088
   16  1019  606  -5.5670  -3.0698  -1.2089
   17  1018  606  -5.5667  -3.0697  -1.2089
   18  1017  606  -5.5664  -3.0696  -1.2090
   19  1016  607  -5.5657  -3.0697  -1.2088
   20  1015  607  -5.5659  -3.0692  -1.2087
   21  1014  607  -5.5659  -3.0689  -1.2086
   22  1013  607  -5.5659  -3.0686  -1.2086
   23  1012  607  -5.5657  -3.0684  -1.2086
   24  1011  607  -5.5654  -3.0682  -1.2086
   25  1010  607  -5.5654  -3.0679  -1.2085
   26   998  608  -5.5631  -3.0655  -1.2082
   27   996  608  -5.5618  -3.0656  -1.2085
   28   999  608  -5.5632  -3.0657  -1.2082
   29   995  609  -5.5609  -3.0659  -1.2085
   30   994  609  -5.5603  -3.0660  -1.2086
   31   993  609  -5.5606  -3.0655  -1.2085
   32   992  609  -5.5607  -3.0650  -1.2083
   33   991  609  -5.5607  -3.0648  -1.2083
   34   989  609  -5.5594  -3.0649  -1.2086
   35   988  609  -5.5587  -3.0651  -1.2088
   36   987  609  -5.5585  -3.0649  -1.2088
   37   986  609  -5.5583  -3.0647  -1.2088
   38   984  609  -5.5565  -3.0652  -1.2093
   39   983  609  -5.5567  -3.0647  -1.2091
   40   981  609  -5.5556  -3.0648  -1.2094
   41   980  609  -5.5550  -3.0649  -1.2096
   42   974  609  -5.5533  -3.0640  -1.2097
   43   976  609  -5.5539  -3.0643  -1.2097
   44   977  609  -5.5540  -3.0645  -1.2097
   45   979  609  -5.5553  -3.0643  -1.2094
   46   972  610  -5.5515  -3.0645  -1.2099
   47   971  610  -5.5515  -3.0642  -1.2099
   48   970  610  -5.5506  -3.0645  -1.2101
   49   968  610  -5.5504  -3.0639  -1.2100
   50   973  610  -5.5524  -3.0643  -1.2097
   51   965  611  -5.5497  -3.0634  -1.2098
   52   964  611  -5.5493  -3.0634  -1.2099
   53   962  611  -5.5494  -3.0626  -1.2097
   54   960  611  -5.5534  -3.0593  -1.2082
   55   961  611  -5.5488  -3.0627  -1.2099
   56   944  611  -5.5496  -3.0565  -1.2085
   57   945  611  -5.5498  -3.0567  -1.2085
   58   946  611  -5.5501  -3.0568  -1.2085
   59   947  611  -5.5503  -3.0570  -1.2085
   60   948  611  -5.5506  -3.0571  -1.2084
   61   949  611  -5.5513  -3.0570  -1.2082
   62   950  611  -5.5523  -3.0567  -1.2080
   63   951  611  -5.5528  -3.0567  -1.2078
   64   951  612  -5.5526  -3.0568  -1.2076
   65   952  612  -5.5522  -3.0574  -1.2078
   66   953  612  -5.5507  -3.0587  -1.2084
   67   954  612  -5.5513  -3.0587  -1.2083
   68   955  612  -5.5521  -3.0585  -1.2080
   69   958  612  -5.5529  -3.0590  -1.2080
   70   959  612  -5.5535  -3.0589  -1.2078
   71   943  612  -5.5488  -3.0567  -1.2084
   72   942  612  -5.5487  -3.0564  -1.2084
   73   941  612  -5.5483  -3.0563  -1.2085
   74   940  612  -5.5482  -3.0561  -1.2084
   75   939  612  -5.5480  -3.0559  -1.2084
   76   938  613  -5.5473  -3.0561  -1.2083
   77   937  613  -5.5469  -3.0560  -1.2084
   78   936  613  -5.5465  -3.0559  -1.2084
   79   934  613  -5.5455  -3.0559  -1.2086
   80   939  613  -5.5477  -3.0561  -1.2083
   81   934  614  -5.5455  -3.0559  -1.2083
   82   933  614  -5.5451  -3.0559  -1.2084
   83   932  614  -5.5455  -3.0553  -1.2082
   84   931  614  -5.5448  -3.0554  -1.2084
   85   930  614  -5.5443  -3.0554  -1.2085
   86   929  614  -5.5444  -3.0550  -1.2084

    1  1157  623  -5.5921  -3.0994  -1.2044
    2  1156  623  -5.5983  -3.0950  -1.2021
    3  1155  623  -5.5889  -3.1009  -1.2054
    4  1154  623  -5.5870  -3.1018  -1.2060
    5  1152  623  -5.5931  -3.0971  -1.2037
    6  1150  623  -5.5927  -3.0967  -1.2037
    7  1147  624  -5.5944  -3.0946  -1.2026
    8  1146  624  -5.5833  -3.1015  -1.2065
    9  1145  624  -5.5892  -3.0974  -1.2043
   10  1144  624  -5.5936  -3.0941  -1.2027
   11  1148  624  -5.5950  -3.0946  -1.2025
   12  1142  625  -5.5926  -3.0941  -1.2026
   13  1141  625  -5.5931  -3.0935  -1.2024
   14  1140  625  -5.5994  -3.0891  -1.2002
   15  1138  625  -5.5961  -3.0906  -1.2012
   16  1136  626  -5.5966  -3.0896  -1.2006
   17  1135  626  -5.5918  -3.0924  -1.2022
   18  1134  626  -5.5858  -3.0960  -1.2042
   19  1133  626  -5.5884  -3.0939  -1.2032
   20  1132  626  -5.5882  -3.0937  -1.2032
   21  1131  626  -5.5889  -3.0930  -1.2029
   25  1126  627  -5.5882  -3.0917  -1.2025
   26  1125  627  -5.5868  -3.0923  -1.2030
   27  1124  627  -5.5878  -3.0914  -1.2026
   28  1122  628  -5.5842  -3.0930  -1.2033
   29  1121  628  -5.5828  -3.0936  -1.2038
   30  1120  628  -5.5827  -3.0934  -1.2037
   31  1119  628  -5.5816  -3.0937  -1.2040
   32  1118  628  -5.5813  -3.0936  -1.2041
   33  1117  628  -5.5792  -3.0947  -1.2048
   34  1116  628  -5.5763  -3.0962  -1.2057
   35  1114  628  -5.5681  -3.1009  -1.2084
   36  1113  628  -5.5812  -3.0921  -1.2038
   37  1112  628  -5.5743  -3.0962  -1.2061
   38  1111  628  -5.5733  -3.0965  -1.2063
   39  1110  629  -5.5660  -3.1010  -1.2085
   40  1109  629  -5.5669  -3.1001  -1.2082
   42  1107  629  -5.5786  -3.0917  -1.2040
   43  1098  629  -5.5735  -3.0921  -1.2051
   44  1099  629  -5.5649  -3.0981  -1.2082
   45  1100  629  -5.5628  -3.0998  -1.2090
   46  1102  629  -5.5656  -3.0987  -1.2081
   47  1097  629  -5.5761  -3.0901  -1.2042
   48  1105  630  -5.5656  -3.0996  -1.2080
   49  1104  630  -5.5699  -3.0965  -1.2065
   50  1103  630  -5.5694  -3.0965  -1.2066

    1  705  649  -5.4923  -3.0159  -1.2016
    2  706  649  -5.4937  -3.0153  -1.2012
    3  707  649  -5.4927  -3.0163  -1.2016
    4  704  649  -5.4918  -3.0159  -1.2017
    5  707  650  -5.4937  -3.0156  -1.2010
    6  709  650  -5.4937  -3.0163  -1.2011
    7  710  650  -5.4928  -3.0172  -1.2015
    8  711  650  -5.4928  -3.0176  -1.2016
    9  713  651  -5.4957  -3.0162  -1.2004
   10  712  651  -5.4948  -3.0165  -1.2006
   11  715  652  -5.4968  -3.0161  -1.1999
   12  716  652  -5.4988  -3.0151  -1.1992
   13  717  652  -5.4989  -3.0154  -1.1993
   14  719  652  -5.5012  -3.0144  -1.1986
   15  714  652  -5.4963  -3.0162  -1.2000
   16  720  653  -5.5006  -3.0152  -1.1986
   17  722  653  -5.5009  -3.0157  -1.1986
   18  723  654  -5.5003  -3.0165  -1.1986
   19  724  654  -5.4964  -3.0195  -1.2000
   20  726  654  -5.4977  -3.0193  -1.1996
   21  727  654  -5.4948  -3.0216  -1.2007
   22  728  654  -5.4955  -3.0215  -1.2005
   23  730  654  -5.4948  -3.0227  -1.2009
   24  731  654  -5.4984  -3.0205  -1.1998
   25  732  654  -5.4976  -3.0214  -1.2001
   26  733  654  -5.4980  -3.0214  -1.2000
   27  734  654  -5.4974  -3.0222  -1.2003
   28  735  654  -5.4967  -3.0230  -1.2006
   29  739  655  -5.4957  -3.0251  -1.2009
   30  738  655  -5.4970  -3.0238  -1.2004
   31  740  656  -5.4968  -3.0247  -1.2004
   32  741  656  -5.4959  -3.0257  -1.2008
   33  743  656  -5.4962  -3.0261  -1.2008
   34  746  657  -5.4940  -3.0286  -1.2014
   35  745  657  -5.4965  -3.0265  -1.2005
   36  748  658  -5.4970  -3.0273  -1.2003
   37  759  658  -5.5013  -3.0280  -1.1996
   38  758  658  -5.5007  -3.0280  -1.1997
   39  757  658  -5.5001  -3.0281  -1.1998
   40  754  658  -5.4991  -3.0278  -1.1999
   41  755  658  -5.4991  -3.0282  -1.2000
   42  756  658  -5.4997  -3.0281  -1.1999
   43  750  659  -5.4981  -3.0271  -1.1997
   44  749  659  -5.4979  -3.0269  -1.1997
   45  760  659  -5.5012  -3.0284  -1.1994
   46  761  659  -5.5015  -3.0285  -1.1993
   47  762  659  -5.5018  -3.0286  -1.1993
   48  764  659  -5.5019  -3.0293  -1.1994
   49  752  659  -5.4982  -3.0277  -1.1998
   50  765  660  -5.5017  -3.0297  -1.1992
   51  766  660  -5.5025  -3.0295  -1.1990
   52  768  660  -5.5040  -3.0291  -1.1986
   53  770  661  -5.5035  -3.0302  -1.1987
   54  771  661  -5.5046  -3.0298  -1.1984
   55  769  661  -5.5025  -3.0305  -1.1989
   56  772  662  -5.5035  -3.0309  -1.1985
   57  774  662  -5.5025  -3.0322  -1.1989
   58  775  662  -5.5030  -3.0323  -1.1989
   59  776  662  -5.5039  -3.0319  -1.1986
   60  778  662  -5.5041  -3.0324  -1.1986
   61  780  662  -5.5046  -3.0328  -1.1986
   62  781  662  -5.5047  -3.0331  -1.1987
   63  782  662  -5.5047  -3.0334  -1.1987
   64  783  662  -5.5047  -3.0338  -1.1988
   65  784  662  -5.5043  -3.0344  -1.1990
   66  785  662  -5.5042  -3.0347  -1.1991

     1  789  797  -5.4766  -3.0569  -1.1705
     2  787  798  -5.4862  -3.0496  -1.1666
     3  786  798  -5.4870  -3.0488  -1.1662
