; ENVI Output of ROIs (5.4) [Tue Aug 06 18:02:46 2019]
; Number of ROIs: 2
; File Dimension: 1152 x 432
;
; ROI name: Region #1
; ROI rgb value: {255, 0, 0}
; ROI npts: 80
;
; ROI name: Region #2
; ROI rgb value: {0, 255, 0}
; ROI npts: 118
;  ID    X    Y      B1      B2      B3
    1  535  356  0.0063  0.0004  0.0010
    3  532  356  0.0063  0.0004  0.0010
    4  531  356  0.0063  0.0004  0.0010
    5  530  356  0.0063  0.0004  0.0010
    6  529  356  0.0063  0.0004  0.0010
    7  528  356  0.0063  0.0004  0.0010
    8  526  356  0.0064  0.0004  0.0010
    9  525  356  0.0063  0.0004  0.0010
   10  524  356  0.0063  0.0004  0.0010
   11  523  356  0.0063  0.0004  0.0010
   12  522  356  0.0063  0.0004  0.0010
   13  521  356  0.0064  0.0004  0.0010
   14  520  356  0.0064  0.0004  0.0010
   15  519  356  0.0064  0.0004  0.0010
   16  518  356  0.0063  0.0004  0.0010
   17  517  356  0.0064  0.0004  0.0010
   18  516  356  0.0064  0.0004  0.0010
   19  515  356  0.0064  0.0004  0.0010
   20  514  356  0.0064  0.0004  0.0010
   21  513  356  0.0064  0.0004  0.0010
   22  512  356  0.0064  0.0004  0.0010
   23  511  356  0.0064  0.0004  0.0010
   24  510  356  0.0064  0.0004  0.0010
   25  509  356  0.0064  0.0004  0.0010
   26  508  356  0.0063  0.0004  0.0010
   27  507  356  0.0064  0.0004  0.0010
   28  506  356  0.0064  0.0004  0.0010
   29  505  356  0.0064  0.0004  0.0010
   30  504  356  0.0064  0.0004  0.0010
   31  503  356  0.0064  0.0004  0.0010
   32  502  356  0.0064  0.0004  0.0010
   33  501  356  0.0064  0.0004  0.0010
   34  500  356  0.0064  0.0004  0.0010
   35  499  356  0.0064  0.0004  0.0010
   36  498  356  0.0064  0.0004  0.0010
   37  497  356  0.0064  0.0004  0.0010
   38  495  356  0.0064  0.0004  0.0010
   39  494  356  0.0064  0.0004  0.0010
   40  493  356  0.0064  0.0005  0.0010
   41  492  356  0.0064  0.0005  0.0010
   42  491  356  0.0063  0.0005  0.0010
   43  490  356  0.0064  0.0005  0.0010
   44  489  356  0.0063  0.0005  0.0010
   45  488  356  0.0064  0.0005  0.0010
   46  487  356  0.0064  0.0005  0.0010
   47  486  356  0.0064  0.0005  0.0010
   48  485  356  0.0064  0.0005  0.0010
   49  484  356  0.0064  0.0005  0.0010
   50  483  356  0.0064  0.0005  0.0010
   51  482  357  0.0064  0.0005  0.0010
   52  481  357  0.0064  0.0005  0.0010
   53  480  357  0.0064  0.0005  0.0010
   54  483  357  0.0064  0.0005  0.0010
   55  480  358  0.0064  0.0005  0.0010
   56  479  358  0.0063  0.0005  0.0010
   57  478  358  0.0063  0.0005  0.0010
   58  477  358  0.0063  0.0005  0.0009
   59  476  358  0.0064  0.0005  0.0010
   60  475  358  0.0064  0.0005  0.0010
   61  474  358  0.0064  0.0005  0.0010
   62  473  358  0.0063  0.0005  0.0010
   63  472  358  0.0064  0.0005  0.0010
   64  471  358  0.0064  0.0005  0.0010
   65  470  359  0.0064  0.0005  0.0010
   66  469  359  0.0064  0.0005  0.0010
   67  468  359  0.0064  0.0005  0.0010
   68  468  360  0.0064  0.0005  0.0010
   69  467  360  0.0064  0.0005  0.0010
   70  466  360  0.0064  0.0005  0.0010
   71  465  360  0.0064  0.0005  0.0010
   72  464  360  0.0064  0.0005  0.0010
   73  463  360  0.0064  0.0005  0.0010
   74  462  360  0.0064  0.0005  0.0010
   75  461  360  0.0063  0.0005  0.0009
   76  460  360  0.0064  0.0005  0.0010
   77  459  360  0.0064  0.0005  0.0010
   78  458  360  0.0064  0.0005  0.0010
   79  457  360  0.0064  0.0005  0.0010
   80  456  360  0.0064  0.0005  0.0010
